Temp,EB,Sty,H2,BeEt,ToMe,t,Run
139.47614,4.5683036,-0.31988418,0.14651206,0.013858373,-0.006401594,0.0,0
133.85997,4.443306,-0.13572805,0.2706444,0.028585736,-0.0038862766,0.12,0
128.54445,4.323166,0.035811327,0.38752687,0.042259045,-0.00090031215,0.24,0
123.517494,4.2077904,0.19544566,0.49747053,0.054943148,0.00251104,0.36,0
118.76675,4.0970755,0.343877,0.6007898,0.06670182,0.0063042897,0.48,0
114.27978,3.9909048,0.48179102,0.69779944,0.077597156,0.010438086,0.6,0
110.04423,3.889152,0.6098516,0.7888113,0.08768893,0.014873442,0.72,0
106.04787,3.7916842,0.72869724,0.8741321,0.09703438,0.019573864,0.84,0
102.278694,3.6983619,0.83893836,0.9540613,0.10568792,0.024505414,0.96,0
98.72503,3.609043,0.9411558,1.0288901,0.113701016,0.029636677,1.08,0
95.375534,3.5235815,1.0358995,1.0988997,0.121122085,0.034938697,1.2,0
92.219246,3.4418323,1.1236892,1.1643609,0.12799664,0.040384896,1.3199999999999998,0
89.245636,3.3636494,1.2050139,1.2255332,0.13436718,0.04595096,1.44,0
86.444595,3.288888,1.2803326,1.2826654,0.14027344,0.051614694,1.56,0
83.80646,3.2174063,1.3500757,1.3359944,0.14575236,0.057355903,1.68,0
81.32201,3.1490643,1.4146459,1.385746,0.15083824,0.06315625,1.7999999999999998,0
78.98247,3.0837264,1.4744188,1.4321343,0.15556298,0.06899909,1.92,0
76.77951,3.0212595,1.5297452,1.4753622,0.15995607,0.07486941,2.04,0
74.70525,2.9615357,1.5809516,1.515622,0.16404486,0.08075364,2.16,0
72.75219,2.9044309,1.6283413,1.5530959,0.16785458,0.08663953,2.28,0
70.91325,2.8498254,1.6721972,1.5879556,0.17140855,0.092516124,2.4,0
69.18175,2.797605,1.7127815,1.620363,0.17472826,0.09837354,2.52,0
67.55136,2.7476592,1.7503383,1.6504714,0.17783357,0.10420297,2.64,0
66.01614,2.6998818,1.7850934,1.6784247,0.18074282,0.10999651,2.76,0
64.57047,2.6541715,1.817257,1.7043586,0.18347271,0.11574716,2.88,0
63.209072,2.610432,1.847023,1.7284001,0.18603882,0.12144868,3.0,0
61.926964,2.568571,1.874572,1.7506701,0.18845536,0.12709558,3.12,0
60.71946,2.5284994,1.9000708,1.771281,0.19073537,0.132683,3.24,0
59.582165,2.490134,1.9236737,1.790339,0.19289088,0.13820666,3.36,0
58.510933,2.4533944,1.945524,1.8079438,0.19493292,0.14366288,3.48,0
57.50188,2.4182038,1.965754,1.8241892,0.19687156,0.14904842,3.6,0
56.551342,2.3844898,1.9844866,1.8391628,0.19871615,0.15436056,3.72,0
55.655884,2.3521833,2.0018346,1.8529475,0.20047508,0.1595969,3.84,0
54.812283,2.3212178,2.017903,1.8656206,0.20215614,0.16475552,3.96,0
54.0175,2.291531,2.0327895,1.8772548,0.20376647,0.16983473,4.08,0
53.268703,2.263063,2.0465827,1.8879187,0.20531252,0.17483322,4.2,0
52.5632,2.2357574,2.0593665,1.8976761,0.20680025,0.17974998,4.32,0
51.898502,2.2095592,2.0712168,1.9065871,0.20823504,0.18458416,4.44,0
51.272243,2.1844177,2.0822048,1.9147081,0.20962185,0.18933521,4.56,0
50.682213,2.1602836,2.0923955,1.9220918,0.2109651,0.19400284,4.68,0
50.12633,2.1371105,2.1018503,1.9287881,0.21226893,0.1985868,4.8,0
49.602654,2.114854,2.1106238,1.9348432,0.21353704,0.20308714,4.92,0
49.10935,2.0934722,2.118769,1.9403007,0.2147728,0.207504,5.04,0
48.644695,2.0729246,2.1263328,1.9452015,0.21597928,0.2118377,5.16,0
48.20707,2.0531728,2.133359,1.9495839,0.21715924,0.21608864,5.279999999999999,0
47.79498,2.0341806,2.1398888,1.9534837,0.21831521,0.22025734,5.4,0
47.406975,2.0159135,2.1459596,1.9569345,0.21944945,0.22434443,5.52,0
47.041744,1.9983382,2.151606,1.9599679,0.22056393,0.22835062,5.64,0
46.698017,1.9814231,2.1568604,1.9626136,0.2216606,0.23227675,5.76,0
46.374615,1.9651386,2.1617517,1.964899,0.22274104,0.23612368,5.88,0
46.070427,1.9494557,2.1663077,1.9668502,0.22380675,0.23989229,6.0,0
45.784412,1.9343476,2.1705532,1.9684913,0.22485906,0.24358359,6.12,0
45.51559,1.919788,2.1745117,1.9698455,0.2258992,0.24719861,6.24,0
45.263046,1.9057521,2.178205,1.9709334,0.22692816,0.25073838,6.359999999999999,0
45.025917,1.8922163,2.1816523,1.9717754,0.22794692,0.25420403,6.48,0
44.80338,1.8791583,2.1848726,1.97239,0.22895634,0.25759664,6.6,0
44.59467,1.8665563,2.1878822,1.9727949,0.22995713,0.26091743,6.72,0
44.399075,1.8543898,2.190697,1.9730061,0.23094997,0.26416755,6.84,0
44.215908,1.8426391,2.1933315,1.9730392,0.23193537,0.26734817,6.96,0
44.044537,1.8312855,2.1957986,1.972908,0.23291388,0.27046043,7.08,0
43.884365,1.8203112,2.1981108,1.9726263,0.23388591,0.2735056,7.199999999999999,0
43.73482,1.8096992,2.2002795,1.9722064,0.23485187,0.27648488,7.319999999999999,0
43.59537,1.7994332,2.202315,1.9716603,0.23581205,0.27939942,7.439999999999999,0
43.465515,1.7894976,2.2042267,1.9709985,0.23676674,0.28225052,7.56,0
43.344784,1.7798774,2.2060242,1.9702313,0.23771617,0.28503934,7.68,0
43.23273,1.7705585,2.207715,1.9693685,0.23866056,0.2877671,7.8,0
43.128933,1.7615272,2.209307,1.9684187,0.23960002,0.29043496,7.92,0
43.033,1.7527707,2.2108068,1.9673905,0.24053471,0.29304415,8.04,0
42.944553,1.7442762,2.2122214,1.9662915,0.24146472,0.29559585,8.16,0
42.863235,1.7360322,2.2135565,1.9651289,0.24239016,0.29809126,8.28,0
42.78872,1.7280271,2.2148178,1.9639093,0.24331108,0.30053148,8.4,0
42.720695,1.7202502,2.2160103,1.9626391,0.24422751,0.30291763,8.52,0
42.65886,1.7126911,2.2171383,1.9613242,0.24513943,0.3052509,8.64,0
42.602936,1.7053397,2.2182066,1.9599698,0.24604692,0.3075324,8.76,0
42.552654,1.6981864,2.219219,1.9585813,0.24694993,0.30976322,8.879999999999999,0
42.50777,1.6912224,2.2201793,1.9571633,0.2478485,0.31194445,9.0,0
42.46804,1.6844387,2.2210906,1.9557201,0.24874261,0.31407714,9.12,0
42.433247,1.6778271,2.2219565,1.9542555,0.24963221,0.31616235,9.24,0
42.403168,1.6713798,2.2227793,1.9527736,0.25051725,0.31820115,9.36,0
42.37761,1.6650888,2.223562,1.9512779,0.2513977,0.3201945,9.48,0
42.35638,1.6589469,2.2243073,1.9497713,0.25227356,0.32214347,9.6,0
42.339302,1.6529472,2.225017,1.9482572,0.25314474,0.32404903,9.72,0
42.3262,1.6470828,2.225694,1.9467384,0.25401118,0.32591206,9.84,0
42.316902,1.6413478,2.2263396,1.9452171,0.25487286,0.32773364,9.96,0
42.311264,1.6357355,2.226956,1.9436958,0.2557297,0.32951462,10.08,0
42.309143,1.6302402,2.2275443,1.9421763,0.2565817,0.33125594,10.2,0
42.310394,1.6248562,2.2281067,1.9406612,0.2574288,0.3329585,10.32,0
42.314884,1.6195785,2.2286444,1.9391521,0.25827095,0.3346231,10.44,0
42.32249,1.6144015,2.2291586,1.9376504,0.2591081,0.33625072,10.56,0
42.33309,1.6093203,2.2296505,1.9361583,0.2599402,0.33784214,10.68,0
42.346577,1.6043303,2.2301214,1.9346764,0.26076722,0.33939812,10.8,0
42.36283,1.5994269,2.2305722,1.9332066,0.26158908,0.34091958,10.92,0
42.381767,1.5946058,2.2310042,1.9317498,0.26240578,0.34240726,11.04,0
42.403263,1.5898628,2.231418,1.9303068,0.2632173,0.34386188,11.16,0
42.427246,1.5851941,2.2318144,1.9288787,0.2640236,0.34528425,11.28,0
42.45362,1.5805956,2.2321942,1.9274666,0.26482463,0.34667513,11.4,0
42.4823,1.5760639,2.2325583,1.9260708,0.26562035,0.34803525,11.52,0
42.513203,1.5715953,2.232907,1.9246924,0.26641074,0.34936532,11.64,0
42.54625,1.5671865,2.2332413,1.9233316,0.26719582,0.35066593,11.76,0
42.581367,1.5628344,2.2335618,1.9219893,0.26797554,0.35193777,11.88,0
42.61849,1.5585358,2.2338686,1.9206657,0.2687499,0.35318166,12.0,0
129.99646,3.1316943,-0.1765577,-0.025752725,-0.00031805443,0.0015656654,0.0,1
124.992325,3.033804,-0.029550191,0.08503958,0.012632663,0.0022378394,0.12,1
120.26872,2.9401345,0.10679425,0.1891857,0.02463779,0.0033177037,0.24,1
115.812744,2.8505473,0.23315318,0.2870042,0.03575823,0.004767518,0.36,1
111.611534,2.7649007,0.35017985,0.37881097,0.04605298,0.0065512415,0.48,1
107.65239,2.6830506,0.45850027,0.46491688,0.05557877,0.008634752,0.6,1
103.922874,2.6048517,0.55871046,0.54562527,0.06438973,0.0109859705,0.72,1
100.410866,2.5301592,0.6513756,0.62123084,0.07253727,0.013574913,0.84,1
97.104614,2.4588287,0.7370296,0.69201803,0.08006999,0.016373709,0.96,1
93.99284,2.3907185,0.81617475,0.75826055,0.0870336,0.019356554,1.08,1
91.06468,2.3256881,0.8892826,0.8202206,0.09347102,0.022499643,1.2,1
88.30973,2.2636023,0.9567944,0.8781485,0.0994224,0.025781091,1.3199999999999998,1
85.718056,2.2043283,1.0191228,0.9322829,0.10492523,0.029180836,1.44,1
83.280205,2.1477365,1.0766524,0.98285025,0.11001441,0.03268052,1.56,1
80.98722,2.0937033,1.129742,1.0300659,0.11472243,0.03626339,1.68,1
78.830574,2.0421083,1.1787243,1.0741334,0.119079426,0.039914194,1.7999999999999998,1
76.80222,1.9928367,1.2239095,1.1152451,0.12311338,0.04361905,1.92,1
74.89454,1.9457772,1.2655851,1.1535829,0.12685023,0.047365386,2.04,1
73.100334,1.9008241,1.3040175,1.1893184,0.13031395,0.05114178,2.16,1
71.41283,1.8578758,1.3394543,1.2226131,0.13352671,0.05493791,2.28,1
69.8256,1.8168355,1.3721243,1.2536194,0.13650903,0.058744475,2.4,1
68.33264,1.7776109,1.4022398,1.2824805,0.13927981,0.06255307,2.52,1
66.92827,1.7401139,1.4299968,1.309331,0.14185654,0.06635615,2.64,1
65.60715,1.7042603,1.455577,1.334298,0.14425534,0.07014694,2.76,1
64.36427,1.6699704,1.4791484,1.3575003,0.14649104,0.07391937,2.88,1
63.194923,1.6371684,1.5008662,1.3790497,0.1485773,0.077668004,3.0,1
62.09466,1.6057819,1.5208738,1.3990513,0.15052676,0.081388034,3.12,1
61.05933,1.5757425,1.539304,1.4176037,0.15235099,0.08507516,3.24,1
60.085026,1.5469849,1.5562793,1.4347993,0.15406068,0.0887256,3.36,1
59.16808,1.5194473,1.5719122,1.4507253,0.15566559,0.09233601,3.48,1
58.305042,1.4930708,1.5863074,1.4654626,0.15717477,0.09590344,3.6,1
57.49269,1.4677995,1.5995617,1.4790883,0.15859646,0.09942535,3.72,1
56.727997,1.4435807,1.6117636,1.4916737,0.15993829,0.10289954,3.84,1
56.008106,1.4203638,1.6229955,1.5032861,0.16120721,0.106324084,3.96,1
55.33036,1.398101,1.6333331,1.5139889,0.16240963,0.10969739,4.08,1
54.692257,1.376747,1.6428465,1.5238407,0.16355139,0.11301809,4.2,1
54.09143,1.3562589,1.6515999,1.5328974,0.16463785,0.11628507,4.32,1
53.525684,1.3365957,1.6596528,1.5412108,0.16567391,0.1194974,4.44,1
52.992958,1.3177185,1.6670603,1.5488298,0.16666406,0.12265441,4.56,1
52.49131,1.2995902,1.6738727,1.5558,0.16761245,0.1257555,4.68,1
52.018917,1.2821761,1.6801369,1.5621642,0.16852279,0.12880036,4.8,1
51.57407,1.2654427,1.6858958,1.5679628,0.16939852,0.1317887,4.92,1
51.155178,1.2493583,1.6911889,1.5732334,0.17024273,0.13472041,5.04,1
50.76073,1.2338924,1.6960529,1.5780113,0.17105831,0.13759555,5.16,1
50.389317,1.2190169,1.7005218,1.5823295,0.17184782,0.14041422,5.279999999999999,1
50.03961,1.2047044,1.7046262,1.586219,0.17261364,0.1431766,5.4,1
49.710384,1.190929,1.7083948,1.5897087,0.17335789,0.14588302,5.52,1
49.40045,1.177666,1.711854,1.592826,0.17408252,0.14853384,5.64,1
49.108727,1.1648918,1.7150279,1.5955967,0.17478928,0.15112951,5.76,1
48.83418,1.1525843,1.7179393,1.5980442,0.17547978,0.1536705,5.88,1
48.575848,1.140722,1.7206082,1.6001912,0.17615545,0.1561574,6.0,1
48.332825,1.1292849,1.7230537,1.6020588,0.17681764,0.1585908,6.12,1
48.10426,1.1182535,1.7252934,1.6036662,0.1774675,0.16097133,6.24,1
47.88935,1.1076094,1.7273431,1.6050323,0.17810608,0.1632997,6.359999999999999,1
47.687347,1.0973352,1.7292181,1.6061742,0.17873433,0.16557656,6.48,1
47.497547,1.0874143,1.7309319,1.6071079,0.17935316,0.16780269,6.6,1
47.31928,1.0778304,1.7324966,1.6078486,0.17996328,0.16997884,6.72,1
47.151928,1.0685686,1.7339243,1.6084106,0.18056542,0.17210579,6.84,1
46.994896,1.0596142,1.7352252,1.6088068,0.18116015,0.17418431,6.96,1
46.84764,1.0509535,1.7364095,1.60905,0.18174805,0.1762152,7.08,1
46.709637,1.0425732,1.7374855,1.6091518,0.18232961,0.17819929,7.199999999999999,1
46.58041,1.0344609,1.7384621,1.6091229,0.18290523,0.18013741,7.319999999999999,1
46.459484,1.0266045,1.7393467,1.6089735,0.1834753,0.18203036,7.439999999999999,1
46.346436,1.0189924,1.7401463,1.6087132,0.18404019,0.18387897,7.56,1
46.24086,1.0116137,1.7408675,1.6083506,0.18460014,0.1856841,7.68,1
46.142372,1.004458,1.741516,1.6078944,0.18515544,0.18744656,7.8,1
46.05061,0.99751514,1.7420973,1.6073523,0.18570627,0.18916716,7.92,1
45.965233,0.99077564,1.7426165,1.6067314,0.18625288,0.19084673,8.04,1
45.88592,0.98423046,1.7430782,1.6060385,0.18679538,0.19248606,8.16,1
45.812378,0.9778708,1.7434865,1.6052799,0.18733394,0.19408602,8.28,1
45.744312,0.9716883,1.7438458,1.6044619,0.1878687,0.19564736,8.4,1
45.68146,0.965675,1.744159,1.6035897,0.18839973,0.19717093,8.52,1
45.62357,0.95982325,1.7444297,1.6026683,0.18892714,0.19865748,8.64,1
45.5704,0.9541258,1.744661,1.601703,0.18945093,0.2001078,8.76,1
45.521725,0.9485757,1.7448558,1.6006982,0.18997124,0.20152263,8.879999999999999,1
45.477337,0.9431662,1.7450163,1.5996578,0.19048801,0.20290278,9.0,1
45.437023,0.93789095,1.7451452,1.5985855,0.1910014,0.20424896,9.12,1
45.400604,0.93274385,1.7452446,1.5974852,0.19151135,0.20556192,9.24,1
45.3679,0.92771906,1.7453163,1.5963603,0.19201788,0.2068424,9.36,1
45.338734,0.92281103,1.7453622,1.595214,0.192521,0.20809107,9.48,1
45.31295,0.91801417,1.745384,1.5940491,0.19302075,0.20930867,9.6,1
45.290398,0.9133237,1.7453835,1.5928684,0.19351704,0.21049589,9.72,1
45.27093,0.90873444,1.7453618,1.5916744,0.19400997,0.21165337,9.84,1
45.25442,0.90424186,1.7453204,1.5904692,0.19449943,0.2127818,9.96,1
45.24073,0.8998414,1.7452607,1.5892555,0.19498548,0.21388187,10.08,1
45.229744,0.89552885,1.7451836,1.5880346,0.19546808,0.21495414,10.2,1
45.221336,0.8913,1.74509,1.5868088,0.1959472,0.21599929,10.32,1
45.215412,0.88715106,1.7449807,1.5855799,0.1964228,0.21701792,10.44,1
45.211857,0.88307804,1.744857,1.584349,0.19689494,0.21801066,10.56,1
45.210575,0.8790776,1.7447193,1.5831181,0.19736353,0.21897808,10.68,1
45.211468,0.87514603,1.7445685,1.5818882,0.19782856,0.21992075,10.8,1
45.21445,0.8712801,1.7444054,1.5806606,0.19829004,0.22083923,10.92,1
45.219444,0.86747664,1.7442304,1.5794364,0.19874793,0.2217341,11.04,1
45.226368,0.8637327,1.7440443,1.5782167,0.19920222,0.22260591,11.16,1
45.235134,0.8600452,1.7438476,1.5770024,0.1996529,0.22345515,11.28,1
45.245674,0.85641146,1.7436407,1.5757945,0.20009992,0.22428235,11.4,1
45.257923,0.8528288,1.743424,1.5745935,0.2005433,0.22508806,11.52,1
45.27182,0.8492948,1.7431979,1.5734004,0.20098302,0.22587274,11.64,1
45.28729,0.84580684,1.7429627,1.5722157,0.20141907,0.22663686,11.76,1
45.30428,0.84236264,1.7427188,1.57104,0.20185141,0.2273809,11.88,1
45.322742,0.8389599,1.7424668,1.5698735,0.20228006,0.22810535,12.0,1
77.38651,2.935198,0.027922843,0.05970207,0.0130722085,0.023146817,0.0,2
74.22362,2.8600936,0.13422005,0.13963765,0.019867178,0.022223342,0.12,2
71.25096,2.7884068,0.23277329,0.21481322,0.026067933,0.021630378,0.24,2
68.457924,2.7199948,0.32412124,0.2854897,0.031720344,0.021338813,0.36,2
65.83429,2.6547163,0.4087715,0.3519182,0.036867514,0.021321364,0.48,2
63.37029,2.5924337,0.4872013,0.41433924,0.041549806,0.021552574,0.6,2
61.056602,2.5330133,0.5598579,0.47298273,0.045804907,0.022008756,0.72,2
58.884346,2.4763255,0.62715966,0.52806777,0.049667947,0.022667944,0.84,2
56.84509,2.4222448,0.68949735,0.5798026,0.05317159,0.02350981,0.96,2
54.93085,2.3706498,0.74723554,0.6283849,0.056346152,0.024515582,1.08,2
53.134075,2.3214245,0.80071336,0.6740018,0.059219707,0.025667962,1.2,2
51.447613,2.2744572,0.85024655,0.7168303,0.061818253,0.026951024,1.3199999999999998,2
49.86473,2.229641,0.8961285,0.7570377,0.06416584,0.028350133,1.44,2
48.37907,2.1868732,0.9386315,0.79478186,0.066284634,0.029851858,1.56,2
46.98466,2.1460562,0.97800833,0.83021164,0.06819512,0.031443883,1.68,2
45.67587,2.107096,1.0144938,0.86346716,0.06991617,0.033114932,1.7999999999999998,2
44.44742,2.0699039,1.048305,0.89468044,0.07146516,0.034854688,1.92,2
43.294323,2.0343952,1.0796431,0.9239757,0.07285806,0.03665372,2.04,2
42.211914,2.000489,1.108695,0.95146984,0.0741096,0.038503412,2.16,2
41.195816,1.9681083,1.135633,0.9772725,0.07523327,0.04039591,2.28,2
40.24191,1.9371803,1.1606171,1.0014871,0.07624149,0.042324055,2.4,2
39.34634,1.9076353,1.183795,1.0242108,0.07714564,0.04428132,2.52,2
38.50549,1.8794075,1.2053037,1.0455345,0.07795617,0.04626178,2.64,2
37.715958,1.8524344,1.2252696,1.065544,0.07868262,0.048260048,2.76,2
36.974575,1.826656,1.2438098,1.0843196,0.07933375,0.050271235,2.88,2
36.27836,1.8020159,1.2610326,1.1019368,0.0799176,0.052290913,3.0,2
35.624508,1.7784605,1.2770377,1.1184666,0.08044146,0.05431507,3.12,2
35.01041,1.7559388,1.2919179,1.1339755,0.08091204,0.0563401,3.24,2
34.433617,1.7344022,1.3057585,1.1485262,0.08133543,0.058362715,3.36,2
33.89183,1.7138047,1.3186386,1.1621772,0.0817172,0.06038001,3.48,2
33.382896,1.6941029,1.3306309,1.1749836,0.08206241,0.06238933,3.6,2
32.904797,1.6752547,1.3418032,1.1869974,0.08237569,0.06438831,3.72,2
32.455643,1.6572213,1.3522176,1.1982669,0.0826612,0.066374846,3.84,2
32.033672,1.6399648,1.3619316,1.2088379,0.08292276,0.06834704,3.96,2
31.63722,1.6234497,1.3709984,1.2187529,0.083163805,0.070303224,4.08,2
31.264748,1.6076423,1.379467,1.2280524,0.08338747,0.07224194,4.2,2
30.914787,1.5925101,1.3873831,1.2367741,0.083596565,0.07416188,4.32,2
30.585985,1.5780227,1.3947883,1.2449535,0.083793625,0.07606191,4.44,2
30.277065,1.5641512,1.4017214,1.2526238,0.08398094,0.07794104,4.56,2
29.986832,1.5508674,1.408218,1.2598163,0.08416057,0.07979841,4.68,2
29.71416,1.5381453,1.4143113,1.2665606,0.08433436,0.0816333,4.8,2
29.458012,1.5259597,1.4200315,1.2728839,0.08450395,0.08344509,4.92,2
29.217396,1.5142866,1.425407,1.2788123,0.08467083,0.08523327,5.04,2
28.991396,1.5031033,1.4304634,1.2843701,0.08483629,0.08699741,5.16,2
28.779146,1.492388,1.4352252,1.2895803,0.08500149,0.088737205,5.279999999999999,2
28.579834,1.4821204,1.4397142,1.2944643,0.08516747,0.09045236,5.4,2
28.39271,1.4722804,1.4439508,1.2990423,0.08533512,0.092142716,5.52,2
28.217058,1.4628496,1.447954,1.3033333,0.085505225,0.09380812,5.64,2
28.052217,1.4538099,1.4517415,1.3073549,0.08567847,0.095448546,5.76,2
27.897556,1.4451442,1.4553291,1.311124,0.08585545,0.09706395,5.88,2
27.752497,1.4368364,1.4587313,1.3146561,0.08603665,0.09865438,6.0,2
27.61648,1.4288708,1.4619623,1.3179663,0.08622252,0.10021991,6.12,2
27.488997,1.4212328,1.465035,1.3210686,0.08641342,0.10176066,6.24,2
27.369562,1.4139078,1.4679605,1.3239758,0.08660961,0.10327679,6.359999999999999,2
27.257727,1.4068826,1.4707497,1.3267002,0.08681136,0.10476845,6.48,2
27.153057,1.4001441,1.4734129,1.3292532,0.08701886,0.10623585,6.6,2
27.055164,1.3936801,1.4759591,1.3316461,0.087232225,0.10767923,6.72,2
26.963667,1.3874787,1.4783968,1.3338885,0.08745159,0.10909886,6.84,2
26.878214,1.3815289,1.4807339,1.3359901,0.08767699,0.110494986,6.96,2
26.79848,1.3758194,1.4829775,1.3379602,0.08790846,0.1118679,7.08,2
26.724142,1.3703405,1.4851345,1.339807,0.08814601,0.11321789,7.199999999999999,2
26.65492,1.365082,1.4872111,1.3415384,0.08838961,0.11454529,7.319999999999999,2
26.59054,1.3600346,1.4892129,1.3431622,0.0886392,0.11585043,7.439999999999999,2
26.530746,1.3551892,1.4911449,1.3446852,0.088894725,0.117133625,7.56,2
26.475292,1.3505372,1.4930123,1.3461142,0.08915609,0.11839522,7.68,2
26.423952,1.3460703,1.4948196,1.3474551,0.08942319,0.11963557,7.8,2
26.376514,1.3417807,1.4965711,1.3487139,0.08969594,0.120854996,7.92,2
26.332777,1.3376607,1.4982702,1.3498958,0.089974165,0.1220539,8.04,2
26.292551,1.3337029,1.4999206,1.3510065,0.090257764,0.123232625,8.16,2
26.25566,1.3299007,1.5015259,1.3520503,0.090546586,0.1243915,8.28,2
26.221935,1.3262476,1.503089,1.353032,0.09084048,0.12553091,8.4,2
26.191221,1.3227369,1.5046124,1.3539559,0.09113928,0.12665121,8.52,2
26.16337,1.3193625,1.5060993,1.3548259,0.09144284,0.12775278,8.64,2
26.13824,1.3161187,1.5075517,1.3556459,0.09175098,0.12883595,8.76,2
26.115705,1.3129998,1.5089718,1.3564193,0.09206354,0.1299011,8.879999999999999,2
26.095636,1.3100005,1.5103617,1.3571497,0.09238035,0.13094856,9.0,2
26.077917,1.3071156,1.5117232,1.35784,0.09270126,0.1319787,9.12,2
26.06244,1.3043401,1.5130587,1.3584929,0.093026064,0.13299187,9.24,2
26.049103,1.3016695,1.514369,1.3591115,0.093354605,0.1339884,9.36,2
26.037802,1.2990988,1.5156561,1.3596982,0.09368675,0.13496864,9.48,2
26.028448,1.2966243,1.5169213,1.3602557,0.094022326,0.13593295,9.6,2
26.020956,1.2942413,1.5181656,1.360786,0.094361134,0.13688162,9.72,2
26.01524,1.291946,1.5193905,1.3612913,0.09470305,0.137815,9.84,2
26.011223,1.2897345,1.5205971,1.3617736,0.09504789,0.1387334,9.96,2
